time,ps_waveform,ps_bpm,cam_waveform_red,cam_waveform_green,cam_bpm
0.085214,71,63,83.10610625,146.1728125,0
0.113953,75,63,81.9499875,143.93065625,0
0.144751,77,63,81.811225,144.00208125,0
0.17687,77,63,81.79104375,144.05875625,0
0.206426,75,63,81.7914,144.14509375,0
0.240869,72,63,81.75430625,144.2314875,0
0.269113,69,63,82.77395,144.28539375,0
0.299382,65,63,83.180125,144.3226,0
0.329689,60,63,83.41350625,144.3073625,0
0.360541,56,63,83.55825,144.3305625,0
0.39292,51,63,83.593825,144.3242375,0
0.422239,47,63,82.54290625,144.29593125,0
0.453162,42,63,81.95368125,144.30979375,0
0.485339,40,63,81.5403375,144.3570625,0
0.514865,37,63,81.5135125,144.3912,0
0.547048,35,63,81.4145,144.4321375,0
0.576659,34,63,81.3807375,144.49785625,0
0.607321,35,63,81.51795,144.5636875,0
0.638175,36,63,81.54135,144.60498125,0
0.669068,38,63,81.472875,144.6672375,0
0.701818,40,63,81.5427875,144.68526875,0
0.731769,40,63,81.7750125,144.75253125,0
0.762344,42,63,81.980375,144.798,0
0.793243,43,63,82.01716875,144.80275,0
0.823242,43,63,81.9974,144.8289125,0
0.855619,43,63,81.96899375,144.8573625,0
0.886241,42,63,82.34924375,144.9189,0
0.915918,42,63,82.591525,145.01289375,0
0.946724,40,63,82.68364375,145.0278375,0
0.977562,40,63,82.66616875,145.08605625,0
1.009759,38,63,82.68409375,145.11336875,0
1.039258,37,63,82.39919375,145.15513125,0
1.069988,35,63,82.27119375,145.17584375,0
1.100839,33,63,82.1820625,145.17435625,0
1.131789,32,63,82.10483125,145.05600625,0
1.165059,30,63,82.14768125,144.87965625,0
1.195855,28,63,82.43608125,144.74851875,0
1.224942,27,63,82.551625,144.75535625,0
1.255154,25,63,82.58636875,144.77061875,0
1.286001,24,63,82.57050625,144.86136875,0
1.318375,23,63,82.52366875,144.9087,0
1.347687,22,63,82.266375,145.02806875,0
1.378548,21,63,82.14505,145.09763125,0
1.409449,20,63,82.07726875,145.17655625,0
1.440181,20,63,82.0004375,145.21085,0
1.472479,20,63,81.97841875,145.24826875,0
1.502608,20,63,81.46743125,145.24255625,0
1.532834,20,63,81.26935,145.26173125,0
1.563632,20,63,81.1632625,145.221075,0
1.595908,21,63,81.02163125,145.25563125,0
1.627306,21,63,81.03835,145.2667,0
1.657578,22,63,81.83291875,145.32233125,0
1.68764,22,63,82.3213375,145.38868125,0
1.717844,22,63,82.43688125,145.421925,0
1.748701,22,63,82.5550125,145.463675,0
1.780991,23,63,82.60609375,145.51574375,0
1.810382,23,63,82.41386875,145.5687875,0
1.841308,23,63,82.29745625,145.61994375,0
1.872155,23,63,82.2535625,145.68106875,0
1.90429,22,63,82.22795625,145.73344375,0
1.935266,22,63,82.18199375,145.7562625,0
1.964786,22,63,82.29175,145.80635625,0
1.995563,21,63,82.37445,145.84393125,0
2.026341,21,63,82.43566875,145.86619375,0
2.057262,22,63,82.4299625,145.89393125,0
2.089841,26,63,82.4222,145.952225,0
2.120777,33,63,82.314875,145.9969625,0
2.150573,40,63,82.30308125,145.9986375,0
2.180568,50,63,82.29271875,145.88016875,0
2.212136,61,63,82.18953125,145.71898125,0
2.243748,71,63,82.33504375,145.59159375,0
2.273131,78,63,82.44235625,145.54473125,0
2.305268,82,63,82.5281125,145.5766625,0
2.334841,84,63,82.58505,145.6308875,0
2.365714,84,63,82.54169375,145.68954375,0
2.397973,82,63,82.533775,145.689525,0
2.427449,79,63,82.62363125,145.78664375,0
2.458227,75,63,82.7023125,145.85301875,0
2.489025,71,63,82.76436875,145.91729375,0
2.519942,66,63,82.75563125,145.9393125,0
2.55237,62,63,82.705425,145.94774375,0
2.583744,57,63,82.2098125,145.92316875,0
2.61503,52,63,81.86045,145.85713125,0
2.643392,47,63,81.715225,145.82100625,0
2.674148,43,63,81.6203,145.84225,0
2.706467,40,63,81.6004875,145.86545,0
2.735879,38,63,81.80280625,145.94208125,0
2.766797,36,63,81.80804375,145.94750625,0
2.797636,36,63,81.8168375,146.00883125,0
2.828411,37,63,81.9104875,146.07586875,0
2.860577,39,63,81.9611875,146.13544375,0
2.890143,40,63,81.5824,146.11224375,0
2.92157,42,63,81.52985,146.1762875,0
2.95179,43,63,81.32885625,146.157375,0
2.982732,44,63,81.27965,146.19660625,0
3.016423,45,63,81.2207875,146.2417,0
3.046996,45,63,81.03951875,146.28039375,0
3.076348,44,63,80.98581875,146.297325,0
3.106038,43,63,80.8879,146.2729625,0
3.136974,42,63,80.8602375,146.26966875,0
3.169227,41,63,80.833925,146.2879875,0
3.19861,40,63,81.29926875,146.25683125,0
3.229465,38,63,81.39486875,146.092275,0
3.260351,36,63,81.60623125,145.84145,0
3.291098,34,63,81.8263375,145.6745,0
3.324746,32,63,81.8384875,145.6647375,0
3.352911,30,63,81.705075,145.62609375,0
3.383699,28,63,81.61158125,145.65600625,0
3.414588,27,63,81.5567375,145.673525,0
3.44547,25,63,81.5743,145.70939375,0
3.477678,23,63,81.52809375,145.77529375,0
3.509211,22,63,81.75285,145.80525,0
3.539012,21,63,81.8094,145.809675,0
3.568831,20,63,81.89555625,145.7989125,0
3.599671,19,63,81.88458125,145.68391875,0
3.632756,18,63,81.94335625,145.63654375,0
3.66135,18,63,81.6301,145.594425,0
3.692296,18,63,81.66948125,145.5959,0
3.724471,18,63,81.498425,145.60624375,0
3.753953,18,63,81.5531375,145.64721875,0
3.7861,19,63,81.552575,145.667375,0
3.815765,19,63,81.24636875,145.68264375,0
3.846439,20,63,81.0065625,145.73688125,0
3.877378,20,63,80.93975,145.7847875,0
3.908187,21,63,80.92560625,145.79145,0
3.940397,21,63,80.91625,145.82169375,0
3.972408,22,63,81.1998625,145.8813125,0
4.001753,23,63,81.242625,145.9129,0
4.032909,26,63,81.246925,145.94318125,0
4.062337,32,63,81.3332,145.9716,0
4.094768,39,63,81.3796,146.0004125,0
4.1241,47,63,81.26651875,146.0105625,0
4.154949,57,63,81.096025,146.06029375,0
4.185837,66,63,81.15393125,146.14401875,0
4.216622,73,63,81.0786,146.071875,0
4.24886,78,63,81.1136375,145.87761875,0
4.278376,80,63,81.154675,145.64583125,0
4.309189,81,63,81.21153125,145.43885625,0
4.340613,79,63,81.2946125,145.44393125,0
4.370871,77,63,81.322025,145.4819625,0
4.403103,73,63,81.45891875,145.5292375,0
4.436019,69,63,81.43335625,145.60535,0
4.464395,65,63,81.3644375,145.73029375,0
4.494262,60,63,81.38263125,145.7771125,0
4.52502,55,63,81.350525,145.8689875,0
4.557301,50,63,81.35790625,145.8672,0
4.586735,45,63,81.74753125,145.8417625,0
4.617582,40,63,81.78163125,145.71725,0
4.648449,37,63,81.8962125,145.61206875,0
4.679238,35,63,81.98713125,145.6465625,0
4.711542,33,63,81.97975625,145.6409125,0
4.742358,32,63,81.97500625,145.6558,0
4.771834,33,63,81.97553125,145.61615,0
4.802651,35,63,81.96493125,145.637125,0
4.833599,37,63,81.85175625,145.67319375,0
4.866037,39,63,81.88908125,145.70575625,0
4.897093,41,63,82.33810625,145.75863125,0
4.927019,42,63,82.3636,145.80883125,0
4.956993,43,63,82.43951875,145.8556125,0
4.987745,44,63,82.449775,145.85493125,0
5.020299,44,63,82.45795625,145.9138,0
5.050429,43,63,82.56891875,145.92204375,0
5.080526,42,63,82.47896875,145.9439375,0
5.111433,41,63,82.4716375,145.979825,0
5.143497,40,63,82.48516875,146.01665625,0
5.174457,39,63,82.52094375,146.0599,0
5.203937,38,63,82.46289375,146.08109375,0
5.234753,36,63,82.37328125,146.1555375,0
5.265595,34,63,82.3844625,146.10923125,0
5.296439,32,63,82.45073125,145.89365625,0
5.328697,30,63,82.4989,145.65578125,0
5.360387,28,63,82.97625625,145.52700625,0
5.38992,27,63,83.19645,145.54178125,0
5.419732,25,63,83.19738125,145.5812375,0
5.452001,24,63,83.195425,145.64256875,0
5.482977,22,63,83.2594,145.6742375,0
5.512397,21,63,82.99874375,145.74198125,0
5.543265,20,63,82.941825,145.8307,0
5.574127,20,63,82.8415,145.92665,0
5.604825,19,63,82.8603875,145.932025,0
5.637203,19,63,82.7932625,145.90070625,0
5.666731,19,63,82.816675,145.8613,0
5.697488,19,63,82.77481875,145.79013125,0
5.728298,19,63,82.789175,145.76689375,0
5.760074,20,63,82.79741875,145.81874375,0
5.791374,20,63,82.8050375,145.8331375,0
5.822978,21,63,82.3196,145.91151875,0
5.854102,21,63,82.1277125,145.98058125,0
5.882594,22,63,82.06845,146.09033125,0
5.913369,23,63,82.0051625,146.160625,0
5.945732,27,63,81.9508125,146.23519375,0
5.975106,33,63,82.3126875,146.29303125,0
6.005955,40,63,82.4225875,146.3340625,0
6.036816,50,63,82.47353125,146.380025,0
6.067566,60,63,82.4375125,146.3739625,0
6.099852,70,63,82.4363,146.35335625,0
6.129357,78,63,82.1141875,146.395025,0
6.161493,83,63,82.19266875,146.45726875,0
6.190988,85,63,82.0445,146.5658625,0
6.221846,85,63,82.01691875,146.51370625,0
6.254407,84,63,82.01560625,146.41320625,0
6.285645,81,63,82.26595,146.302625,0
6.31552,77,63,82.3741625,146.2150125,0
6.345294,73,63,82.41790625,146.1171375,0
6.376147,68,63,82.4553,146.180825,0
6.408368,63,63,82.4566125,146.32665,0
6.437786,58,63,82.41026875,146.4913375,0
6.46998,53,63,82.316425,146.59979375,0
6.499556,48,63,82.35241875,146.65481875,0
6.530291,43,63,82.2092875,146.7005125,0
6.563879,40,63,82.22576875,146.7298875,0
6.592131,38,63,82.20906875,146.707125,0
6.622908,36,63,82.239875,146.66989375,0
6.653837,36,63,82.1953125,146.66736875,0
6.684634,37,63,82.22430625,146.68478125,0
6.717007,39,63,82.1725375,146.7411,0
6.748635,40,63,82.41745625,146.7687375,0
6.779302,43,63,82.32443125,146.77358125,0
6.808006,45,63,82.3402,146.806575,0
6.838796,46,63,82.3535875,146.78848125,0
6.872387,47,63,82.26388125,146.7753625,0
6.900574,47,63,82.453425,146.83178125,0
6.931464,46,63,82.67071875,146.89409375,0
6.962285,46,63,82.61894375,146.91675,0
6.993051,44,63,82.6134875,146.942,0
7.025311,43,63,82.5971375,146.98285625,0
7.054795,41,63,82.741525,147.00456875,0
7.085635,40,63,82.73348125,147.0203,0
7.116528,38,63,82.76910625,147.096925,0
7.147344,36,63,82.8016375,147.13250625,0
7.180984,34,63,82.72666875,147.12456875,0
7.211448,32,63,83.02064375,147.05134375,0
7.240896,30,63,83.1546625,146.89186875,0
7.270752,28,63,83.29609375,146.7189375,0
7.301606,26,63,83.4386125,146.626925,0
7.333923,24,63,83.50686875,146.63413125,0
7.363322,23,63,83.7332375,146.72245,0
7.39417,22,63,83.73626875,146.8510625,0
7.425013,21,63,83.847925,146.992275,0
7.455828,20,63,83.88629375,147.14713125,0
7.488761,20,63,83.888025,147.319025,0
7.517602,19,63,83.294175,147.381125,0
7.548369,19,63,82.9398625,147.4265375,0
7.580542,20,63,82.783775,147.4122875,0
7.610132,20,63,82.6705,147.41090625,0
7.643168,21,63,82.71528125,147.42596875,0
7.672913,22,63,82.909575,147.42009375,0
7.70318,22,63,82.98446875,147.4009,0
7.73349,23,63,83.06846875,147.41576875,0
7.764316,23,63,83.0126,147.488,0
7.796566,24,63,83.12948125,147.53965625,0
7.826006,26,63,82.79670625,147.6039875,0
7.856798,30,63,82.64521875,147.7633125,0
7.889035,37,63,82.594125,147.8557125,0
7.918441,45,63,82.58353125,147.9246625,0
7.950692,55,63,82.50400625,147.98085625,0
7.980265,65,63,83.497475,148.0814375,0
8.011036,73,63,84.128275,148.13380625,0
8.041836,80,63,84.28265,148.21155625,0
8.07288,83,63,84.36619375,148.2766375,0
8.106505,84,63,84.515625,148.3066875,0
8.135531,83,63,84.1743625,148.3387375,0
8.165974,81,63,83.9996375,148.37175625,0
8.196907,77,63,83.86280625,148.36198125,0
8.227042,73,63,83.83509375,148.37933125,0
8.259305,68,63,83.894975,148.2133625,0
8.289952,63,63,83.78230625,147.96781875,0
8.319428,58,63,83.85655,147.87223125,0
8.350392,53,63,83.90645,147.8096875,0
8.381199,48,63,83.8286875,147.87970625,0
8.413465,44,63,83.8657,147.98859375,0
8.442962,40,63,83.8433375,148.062875,0
8.473759,38,63,83.79134375,148.16553125,0
8.504611,36,63,83.81195,148.24969375,0
8.535528,36,63,83.8110625,148.3253,0
8.567992,38,63,83.757525,148.34099375,0
8.600639,40,63,83.0536,148.290825,0
8.629048,41,63,82.77414375,148.230725,0
8.658863,43,63,82.6166375,148.20035625,0
8.689764,45,63,82.589,148.17640625,0
8.721988,46,63,82.51465625,148.19919375,0
8.751381,47,63,82.8346375,148.19735,0
8.782263,47,63,83.05280625,148.2212375,0
8.813187,46,63,83.06746875,148.29101875,0
8.843943,45,63,83.130575,148.36650625,0
8.876182,44,63,83.1244875,148.4008125,0
8.906214,43,63,83.23081875,148.49153125,0
8.936476,41,63,83.320475,148.54095,0
8.967337,40,63,83.32078125,148.570725,0
8.999576,38,63,83.24655,148.6193,0
9.030489,37,63,83.26986875,148.65714375,0
9.062075,35,63,83.48753125,148.6925875,0
9.091736,33,63,83.52674375,148.730325,0
9.12161,31,63,83.50705,148.68045,0
9.152359,29,63,83.4646,148.723825,0
9.184707,28,63,83.492275,148.8051375,0
9.214173,26,63,82.7913,148.6970375,0
9.245031,25,63,82.50750625,148.44966875,0
9.275915,24,63,82.40064375,148.249375,0
9.307913,24,63,82.331825,148.19671875,0
9.338875,23,63,82.2813625,148.2299625,0
9.368329,23,63,82.94701875,148.33190625,0
9.399234,22,63,83.3153125,148.39560625,0
9.430043,22,63,83.30331875,148.47515625,0
9.460888,23,63,83.3973375,148.5122625,0
9.49362,23,63,83.460075,148.63533125,0
9.524638,23,63,83.12291875,148.67218125,0
9.554165,23,63,82.75004375,148.6530625,0
9.584319,24,63,82.7352625,148.57619375,0
9.615758,24,63,82.64666875,148.6105,0
9.64738,24,63,82.6228125,148.54630625,0
9.676843,24,63,83.3706875,148.4987625,0
9.708988,25,63,83.67739375,148.4771875,0
9.738522,26,63,83.81825,148.5138375,0
9.769343,30,63,83.88388125,148.56658125,0
9.801582,35,63,84.00716875,148.71561875,0
9.831069,42,63,83.3367875,148.78334375,0
9.861907,51,63,82.9336375,148.87221875,0
9.892803,60,63,82.704525,148.9210375,0
9.923637,69,63,82.6331375,148.9451625,0
9.955911,75,63,82.52605625,148.9607375,0
9.987496,79,63,82.57135,148.937825,0
10.018434,80,63,82.5359375,148.95503125,0
10.047227,79,63,82.4890625,148.96455625,0
10.078045,77,63,82.57789375,148.98968125,0
10.110345,74,63,82.541125,149.03005,0
10.139665,70,63,82.62526875,149.0434875,0
10.170615,65,63,82.6767375,149.0579875,0
10.201524,61,63,82.65278125,148.94058125,0
10.232284,56,63,82.64575,148.6297625,0
10.264525,51,63,82.68434375,148.40644375,0
10.294011,46,63,83.2211,148.32486875,0
10.325475,41,63,83.45831875,148.23033125,0
10.355673,38,63,83.47503125,148.23455,0
10.386562,35,63,83.67000625,148.2982875,0
10.420277,34,63,83.61824375,148.3290875,0
10.450379,34,63,83.53136875,148.31285625,0
10.4801,35,63,83.3991875,148.339725,0
10.509934,37,63,83.381725,148.3663875,0
10.540685,39,63,83.44746875,148.41383125,0
10.573058,41,63,83.41080625,148.40125,0
10.602419,43,63,83.4746625,148.25491875,0
10.633368,44,63,83.50505625,148.13426875,0
10.664247,45,63,83.519725,148.087475,0
10.695001,45,63,83.51698125,148.06516875,0
10.728507,45,63,83.4497625,148.0664625,0
10.756746,44,63,83.878725,148.09245,0
10.787525,43,63,84.0248625,148.1650375,0
10.818359,42,63,84.16588125,148.21928125,0
10.849305,40,63,84.219375,148.20325,0
10.881672,39,63,84.17661875,148.22840625,0
10.913327,37,63,82.79909375,148.22475625,0
10.942843,35,63,82.05425,148.17849375,0
10.972674,34,63,81.76401875,148.21870625,0
11.003539,32,63,81.6939625,148.2894625,0
11.03652,30,63,81.470475,148.35193125,0
11.065208,29,63,82.24654375,148.38849375,0
11.096015,27,63,82.654525,148.43025,0
11.12829,26,63,82.90133125,148.4800875,0
11.157698,25,63,82.9283375,148.51663125,0
11.189924,24,63,82.95085,148.55729375,0
11.219433,24,63,82.92373125,148.569425,0
11.250236,23,63,82.909925,148.46545625,0
11.281102,23,63,82.9218125,148.25928125,0
11.311992,24,63,83.0371625,148.11381875,0
11.344366,24,63,83.0212875,148.04520625,0
11.376256,24,63,83.70163125,148.08035625,0
11.405589,24,63,84.02369375,148.12358125,0
11.436732,24,63,84.1387875,148.109375,0
11.466275,24,63,84.24184375,148.20801875,0
11.498523,25,63,84.29783125,148.23926875,0
11.527864,26,63,84.0268,148.26923125,0
11.558765,30,63,83.918725,148.29124375,0
11.589703,35,63,83.89884375,148.3418,0
11.620478,42,63,83.84941875,148.3442375,0
11.652815,50,63,83.85669375,148.2764,0
11.682229,59,63,83.48815625,148.26216875,0
11.713054,68,63,83.3656375,148.29785625,0
11.744516,74,63,83.328375,148.4398,0
11.774885,78,63,83.31431875,148.49130625,0
11.807162,79,63,83.3043125,148.54615625,0
11.839402,78,63,83.25494375,148.59351875,0
11.86838,76,63,83.14031875,148.62506875,0
11.898141,73,64,83.09514375,148.59258125,0
11.929,69,64,83.040625,148.6885375,0
11.961221,65,64,83.00118125,148.7398125,0
11.990596,60,64,83.6355,148.7813,0
12.021584,55,64,83.92299375,148.7739125,0
12.052378,50,64,83.99525,148.77189375,0
12.083205,45,64,84.113475,148.79275625,0
12.115464,41,64,84.133675,148.804025,0
12.146288,38,64,84.16241875,148.78073125,0
12.175751,35,64,84.1419875,148.834,0
12.206602,34,64,84.17995,148.7252,0
12.237606,34,64,84.2147875,148.4918875,0
12.270018,35,64,84.2311875,148.28090625,0
12.301119,36,64,84.2336125,148.14965625,0
12.330948,38,64,84.166725,148.132725,0
12.36081,40,64,84.21078125,148.16101875,0
12.391707,42,64,84.28715,148.23233125,0
12.424026,43,64,84.21620625,148.32216875,0
12.454005,44,64,83.88418125,148.3794875,0
12.484274,44,64,83.71374375,148.48808125,0
12.515155,44,64,83.58980625,148.55359375,0
12.547197,44,64,83.5529625,148.58139375,0
12.57816,43,64,83.47119375,148.5030625,0
12.607698,41,64,83.75420625,148.45934375,0
12.638462,40,64,83.84851875,148.4257,0
12.669286,40,64,83.985075,148.37321875,0
12.700158,38,64,84.0215875,148.32421875,0
12.732443,37,64,84.09928125,148.3415,0
12.764088,35,64,84.30790625,148.38484375,0
12.793675,34,64,84.3737375,148.35175,0
12.823538,32,64,84.389675,148.36839375,0
12.855749,30,64,84.3800375,148.38571875,0
12.886694,29,64,84.524825,148.463825,0
12.916041,28,64,83.96261875,148.45405625,0
12.946835,27,64,83.6340125,148.5165,0
12.977794,26,64,83.542975,148.53968125,0
13.008562,25,64,83.44035625,148.588175,0
13.040823,24,64,83.5197,148.68951875,0
13.070301,24,64,83.32413125,148.76820625,0
13.101028,24,64,83.09358125,148.785875,0
13.131951,24,64,83.100925,148.85169375,0
13.163475,24,64,83.08475,148.87924375,0
13.195222,24,64,83.026725,148.81783125,0
13.226721,24,64,83.4984875,148.6374375,0
13.257755,24,64,83.81346875,148.42855,0
13.286318,24,64,83.99809375,148.30064375,0
13.317121,24,64,84.0338,148.207525,0
13.349463,25,64,84.12435,148.174175,0
13.378758,29,64,84.40886875,148.12139375,0
13.409629,34,64,84.5963875,148.0609,0
13.440421,41,64,84.6667,148.00635,0
13.471237,50,64,84.69261875,147.99628125,0
13.503559,60,64,84.70353125,148.04941875,0
13.533122,70,64,84.435175,148.01356875,0
13.565147,77,64,84.42465625,147.97681875,0
13.59479,81,64,84.28455625,147.91673125,0
13.625742,83,64,84.262425,147.84135,0
13.657947,83,64,84.3238375,147.8402875,0
13.689619,81,64,84.197325,147.7694,0
13.719147,78,64,84.25755,147.74226875,0
13.748979,74,64,84.26845,147.7754625,0
13.779861,69,64,84.3227875,147.8055625,0
13.812185,64,64,84.3169125,147.81751875,0
13.841523,59,64,84.33438125,147.81423125,0
13.87304,54,64,84.264725,147.85281875,0
13.903272,49,64,84.24739375,147.8519,0
13.934148,44,64,84.28145,147.841325,0
13.967728,40,64,84.21979375,147.8699375,0
13.995904,38,64,84.79605,147.86163125,0
14.026612,36,64,84.97885625,147.91675,0
14.057454,35,64,85.0858875,147.902675,0
14.088299,36,64,85.0936125,147.9246375,0
14.121048,37,64,85.21294375,147.97689375,0
14.151445,40,64,84.09943125,147.9562,0
14.181649,41,64,83.5923875,147.94099375,0
14.211686,43,64,83.2173875,147.818825,0
14.242529,44,64,83.14096875,147.60509375,0
14.276268,45,64,83.163525,147.40939375,0
14.304246,45,64,83.537575,147.30011875,0
14.334987,44,64,83.667125,147.29123125,0
14.36597,43,64,83.82989375,147.2788,0
14.396772,42,64,83.8531875,147.3204625,0
14.428992,41,64,83.86125625,147.34513125,0
14.458474,40,64,84.66565625,147.4414375,0
14.489251,38,64,84.9606,147.48738125,0
14.520104,36,64,85.22995625,147.525225,0
14.551038,34,64,85.32570625,147.52556875,0
14.584706,32,64,85.36386875,147.52536875,0
14.613984,30,64,85.33731875,147.565025,0
14.644125,28,64,85.25136875,147.51818125,0
14.675731,26,64,85.22366875,147.475325,0
14.705232,25,64,85.3423625,147.50411875,0
14.737516,23,64,85.374075,147.64410625,0
14.766849,22,64,85.2477375,147.79789375,0
14.79779,21,64,85.10105,147.85675,0
14.828638,20,64,85.12706875,147.8988625,0
14.859454,19,64,85.15298125,147.958225,0
14.891728,19,64,84.96421875,147.95135625,0
14.921124,19,64,85.3160875,147.89629375,0
14.951883,19,64,85.30723125,147.8911625,0
14.984139,19,64,85.42216875,147.92188125,0
15.013817,19,64,85.4676125,147.94396875,0
15.04664,19,64,85.4524625,147.93721875,0
15.076932,20,64,85.2979875,147.91083125,0
15.107021,20,64,85.1054375,147.91925,0
15.137248,21,64,85.081675,147.94988125,0
15.168138,21,64,84.99446875,147.93320625,0
15.200635,21,64,85.0103875,147.8310375,0
15.229828,22,64,85.2696875,147.6731625,0
15.260662,23,64,85.437175,147.5521375,0
15.292209,27,64,85.45245,147.485875,0
15.322325,33,64,85.58993125,147.5727875,0
15.354749,40,64,85.60555625,147.70005625,0
15.385429,48,64,85.43830625,147.8827375,0
15.414898,58,64,85.32960625,147.98369375,0
15.44574,67,64,85.2523625,148.00181875,0
15.476635,74,64,85.19590625,148.0466625,0
15.510714,78,64,85.12649375,148.0822375,0
15.539951,79,64,84.7666375,148.05760625,0
15.569626,79,64,84.590325,148.064925,0
15.599963,77,64,84.548625,148.0372125,0
15.630867,70,63,84.47118125,148.025825,0
15.663616,66,63,84.35849375,148.02916875,0
15.693898,61,63,84.597425,148.06410625,0
15.723398,56,63,84.58540625,148.10539375,0
15.754284,51,63,84.72108125,148.1750125,0
15.785102,47,63,84.69384375,148.21226875,0
15.817376,42,63,84.68476875,148.2660875,0
15.846844,37,63,84.76799375,148.35031875,0
15.877583,35,63,84.84675,148.36289375,0
15.908431,35,63,84.970475,148.45620625,0
15.939326,36,63,84.98886875,148.51129375,0
15.974063,38,63,85.03414375,148.545825,0
16.002686,40,63,85.45590625,148.59021875,0
16.032081,42,63,85.77934375,148.67245,0
16.062708,43,63,85.88091875,148.72968125,0
16.094944,45,63,85.9198125,148.76849375,0
16.125977,45,63,86.0021625,148.82049375,0
16.15525,46,63,85.55163125,148.85448125,0
16.186069,45,63,85.3720625,148.78750625,0
16.216953,44,63,85.34261875,148.65679375,0
16.24781,43,63,85.25755,148.4904875,0
16.280082,42,63,85.260125,148.3601375,0
16.309528,40,63,85.00084375,148.27791875,0
16.340292,40,63,85.03375,148.4449125,0
16.371153,38,63,85.0929375,148.71199375,0
16.403416,36,63,84.9069375,148.77916875,0
16.436981,34,63,84.85135625,148.75495,0
16.464855,32,63,85.0378875,148.716625,0
16.494981,31,63,85.14669375,148.81996875,0
16.525589,29,63,85.25080625,148.91425625,0
16.556342,28,63,85.2736375,148.9996375,0
16.588589,26,63,85.26194375,148.92048125,0
16.61797,25,63,85.13011875,148.83656875,0
16.648779,24,63,85.02928125,148.80954375,0
16.679732,23,63,85.0531375,148.86335625,0
16.711287,23,63,85.03659375,148.9837125,0
16.742861,23,63,84.9800125,149.04594375,0
16.772245,22,63,85.06695625,149.0197,0
16.804367,22,63,85.11065,148.97143125,0
16.833904,23,63,85.239525,148.9784,0
16.864833,23,63,85.14821875,149.03300625,0
16.89948,23,63,85.0879625,149.09844375,0
16.928128,23,63,84.734975,149.1176,0
16.957838,23,63,84.43555,149.0643875,0
16.988157,25,63,84.2156125,149.06850625,0
17.019034,29,63,84.19580625,149.09938125,0
17.051649,35,63,84.154825,149.15651875,0
17.080729,41,63,84.5108625,149.216375,0
17.112951,50,63,84.73375625,149.2978375,0
17.142463,60,63,84.90993125,149.379975,0
17.173314,68,63,84.9673375,149.4644125,0
17.205596,74,63,84.99451875,149.37676875,0
17.235067,78,63,85.38345625,149.180425,0
17.265831,79,63,85.570375,149.0119,0
17.296712,78,63,85.66825625,148.96965625,0
17.327573,75,63,85.7241375,148.9957375,0
17.361807,72,63,85.68260625,148.94505625,0
17.390634,68,63,84.83529375,148.9389875,0
17.42139,63,63,84.33404375,148.96755,0
17.450887,59,63,84.0904375,148.945725,0
17.481732,54,63,84.007475,148.9231125,0
17.515446,49,63,83.92035,148.98824375,0
17.543531,44,63,84.3424375,149.03131875,0
17.57426,40,63,84.5379375,148.987925,0
17.605225,37,63,84.63655,148.9529,0
17.63604,34,63,84.68855625,148.96920625,0
17.66828,33,63,84.85671875,148.949,0
17.697757,33,63,84.1887375,148.8934875,0
17.728503,34,63,83.90934375,148.8797,0
17.75936,36,63,83.71515625,148.88990625,0
17.790283,38,63,83.6703625,148.931975,0
17.826356,40,63,83.62344375,148.98919375,0
17.854501,41,63,83.54145,149.02909375,0
17.883322,42,63,83.4988875,149.0675375,0
17.913607,43,63,83.41813125,149.11446875,0
17.944479,43,63,83.4169375,149.15624375,0
17.97684,42,63,83.4262125,149.22230625,0
18.006163,41,63,83.80065,149.26165,0
18.036942,40,63,83.9075,149.2682625,0
18.06788,39,63,83.961475,149.33979375,0
18.09863,37,63,84.02815625,149.33475,0
18.131848,35,63,83.946175,149.31524375,0
18.160415,33,63,83.9162875,149.17415,0
18.191192,31,63,83.8919125,148.90426875,0
18.222053,29,63,83.99444375,148.6545875,0
18.252916,27,63,84.01675,148.48883125,0
18.287832,26,63,84.0299,148.45195625,0
18.317014,24,63,83.95401875,148.54138125,0
18.345904,23,63,83.9419375,148.56905,0
18.376504,22,63,83.9033625,148.59529375,0
18.407176,21,63,83.92994375,148.64288125,0
18.441515,20,63,83.88174375,148.7072875,0
18.468908,19,63,84.07025625,148.7668125,0
18.499683,19,63,84.09648125,148.7713125,0
18.531954,19,63,84.081725,148.7336375,0
18.561438,19,63,84.15188125,148.63333125,0
18.593706,20,63,84.107575,148.57865,0
18.62323,20,63,84.513175,148.553625,0
18.653914,21,63,84.6445,148.50096875,0
18.684777,21,63,84.70566875,148.496925,0
18.715716,22,63,84.8272375,148.52628125,0
18.750157,22,63,84.79184375,148.56865625,0
18.77887,23,63,84.22275625,148.59146875,0
18.808559,24,63,83.96461875,148.6377,0
18.840427,27,63,83.89545,148.66983125,0
18.869852,33,63,83.7146625,148.71763125,0
18.902292,40,63,83.68331875,148.76475,0
18.931572,49,63,83.8420125,148.80280625,0
18.962366,59,63,83.86605,148.820375,0
18.993287,69,63,83.8352375,148.8425125,0
19.024147,77,63,83.88316875,148.88791875,0
19.056473,82,63,83.85679375,148.9175125,0
19.085842,84,63,83.49465,148.921375,0
19.116588,84,63,83.3951,148.8735625,0
19.148221,82,63,83.309575,148.697625,0
19.178433,79,63,83.25685625,148.401775,0
19.213396,75,63,83.2349625,148.16420625,0
19.243149,70,63,83.3499375,148.03766875,0
19.27132,65,63,83.3610875,148.0511375,0
19.301748,60,63,83.4486875,148.07056875,0
19.332622,55,63,83.4400125,148.1075,0
19.364969,51,63,83.416325,148.13035625,0
19.394325,46,63,83.86041875,148.1912125,0
19.42512,42,63,84.084025,148.2500125,0
19.456056,39,63,84.11585,148.28963125,0
19.486792,37,63,84.1817375,148.33128125,0
19.519179,36,63,84.177725,148.2806125,0
19.5499,36,63,84.2760875,148.22011875,0
19.579308,37,63,84.50800625,148.19875625,0
19.610175,39,63,84.522975,148.17105625,0
19.641125,41,63,84.591475,148.17873125,0
19.675988,43,63,84.577775,148.2104625,0
19.704263,44,63,84.35898125,148.21805,0
19.733992,45,63,84.32608125,148.2223125,0
19.764487,46,63,84.2754625,148.27116875,0
19.795336,46,63,84.26415,148.30474375,0
19.827656,45,63,84.1923375,148.3105,0
19.857741,44,63,84.0019125,148.34424375,0
19.887833,43,63,83.8683,148.38903125,0
19.918674,41,63,83.82299375,148.45694375,0
19.950862,40,63,83.81366875,148.4895625,0
19.981839,37,63,83.77431875,148.553175,0
20.011322,35,63,84.1027625,148.60421875,0
